# t[sec] Amplitude 
-0.25 1.60708e-13
-0.249878 0.374251
-0.249756 0.694513
-0.249634 0.913994
-0.249512 0.999526
-0.24939 0.936456
-0.249268 0.731399
-0.249146 0.412321
-0.249023 0.0257262
-0.248901 -0.369047
-0.248779 -0.708006
-0.248657 -0.93235
-0.248535 -0.998737
-0.248413 -0.888369
-0.248291 -0.613123
-0.248169 -0.216975
-0.248047 0.228541
-0.247925 0.635256
-0.247803 0.914804
-0.247681 0.998184
-0.247559 0.85455
-0.247437 0.504361
-0.247314 0.0219936
-0.247192 -0.475592
-0.24707 -0.854518
-0.246948 -0.999985
-0.246826 -0.853965
-0.246704 -0.442589
-0.246582 0.118956
-0.24646 0.651747
-0.246338 0.967137
-0.246216 0.935833
-0.246094 0.547782
-0.245972 -0.064992
-0.24585 -0.662246
-0.245728 -0.984896
-0.245605 -0.87115
-0.245483 -0.348358
-0.245361 0.352684
-0.245239 0.88723
-0.245117 0.96482
-0.244995 0.518017
-0.244873 -0.228367
-0.244751 -0.852121
-0.244629 -0.968037
-0.244507 -0.478015
-0.244385 0.328793
-0.244263 0.925697
-0.244141 0.88964
-0.244019 0.218445
-0.243896 -0.621084
-0.243774 -0.999994
-0.243652 -0.604777
-0.24353 0.278013
-0.243408 0.941179
-0.243286 0.818164
-0.243164 -0.0116955
-0.243042 -0.838175
-0.24292 -0.914157
-0.242798 -0.146973
-0.242676 0.764157
-0.242554 0.946967
-0.242432 0.203462
-0.24231 -0.747339
-0.242188 -0.945408
-0.242065 -0.169987
-0.241943 0.787102
-0.241821 0.912826
-0.241699 0.0568138
-0.241577 -0.864394
-0.241455 -0.835953
-0.241333 0.124083
-0.241211 0.947285
-0.241089 0.697016
-0.240967 -0.351727
-0.240845 -0.997088
-0.240723 -0.486638
-0.240601 0.592349
-0.240479 0.978417
-0.240356 0.213823
-0.240234 -0.803604
-0.240112 -0.871559
-0.23999 0.0919089
-0.239868 0.946563
-0.239746 0.68122
-0.239624 -0.388643
-0.239502 -0.999693
-0.23938 -0.435882
-0.239258 0.637075
-0.239136 0.966846
-0.239014 0.177262
-0.238892 -0.814396
-0.23877 -0.874805
-0.238647 0.0542685
-0.238525 0.919797
-0.238403 0.762608
-0.238281 -0.230206
-0.238159 -0.969786
-0.238037 -0.66926
-0.237915 0.335664
-0.237793 0.986919
-0.237671 0.625328
-0.237549 -0.363284
-0.237427 -0.986922
-0.237305 -0.64897
-0.237183 0.30432
-0.237061 0.96703
-0.236938 0.741937
-0.236816 -0.143825
-0.236694 -0.896688
-0.236572 -0.879175
-0.23645 -0.131458
-0.236328 0.715432
-0.236206 0.989923
-0.236084 0.502714
-0.235962 -0.353566
-0.23584 -0.944299
-0.235718 -0.865553
-0.235596 -0.199361
-0.235474 0.589464
-0.235352 0.992341
-0.235229 0.778767
-0.235107 0.105228
-0.234985 -0.618754
-0.234863 -0.989395
-0.234741 -0.826793
-0.234619 -0.242417
-0.234497 0.452056
-0.234375 0.920154
-0.234253 0.960318
-0.234131 0.578965
-0.234009 -0.0390502
-0.233887 -0.630022
-0.233765 -0.966259
-0.233643 -0.93779
-0.233521 -0.576552
-0.233398 -0.0259381
-0.233276 0.522464
-0.233154 0.896947
-0.233032 0.995698
-0.23291 0.80709
-0.232788 0.4005
-0.232666 -0.103601
-0.232544 -0.57181
-0.232422 -0.892607
-0.2323 -0.999863
-0.232178 -0.881833
-0.232056 -0.576559
-0.231934 -0.157477
-0.231812 0.285806
-0.231689 0.666799
-0.231567 0.917806
-0.231445 0.999849
-0.231323 0.906196
-0.231201 0.660079
-0.231079 0.30798
-0.230957 -0.0897758
-0.230835 -0.469308
-0.230713 -0.77284
-0.230591 -0.956523
-0.230469 -0.995692
-0.230347 -0.887217
-0.230225 -0.64896
-0.230103 -0.316646
-0.22998 0.0613211
-0.229858 0.430459
-0.229736 0.737456
-0.229614 0.937303
-0.229492 0.99951
-0.22937 0.91271
-0.229248 0.686999
-0.229126 0.353578
-0.229004 -0.038543
-0.228882 -0.428674
-0.22876 -0.752966
-0.228638 -0.95441
-0.228516 -0.993034
-0.228394 -0.854643
-0.228271 -0.556294
-0.228149 -0.146845
-0.228027 0.298614
-0.227905 0.690658
-0.227783 0.942673
-0.227661 0.990584
-0.227539 0.811091
-0.227417 0.433435
-0.227295 -0.0600417
-0.227173 -0.547608
-0.227051 -0.895849
-0.226929 -0.996629
-0.226807 -0.803996
-0.226685 -0.358729
-0.226563 0.211262
-0.22644 0.721251
-0.226318 0.987351
-0.226196 0.895962
-0.226074 0.459549
-0.225952 -0.168684
-0.22583 -0.738288
-0.225708 -0.997887
-0.225586 -0.811222
-0.225464 -0.239836
-0.225342 0.458577
-0.22522 0.935476
-0.225098 0.926163
-0.224976 0.409157
-0.224854 -0.348297
-0.224731 -0.911833
-0.224609 -0.92734
-0.224487 -0.357903
-0.224365 0.452631
-0.224243 0.968681
-0.224121 0.817635
-0.223999 0.0786216
-0.223877 -0.726949
-0.223755 -0.988854
-0.223633 -0.480643
-0.223511 0.41864
-0.223389 0.98155
-0.223267 0.720044
-0.223145 -0.167243
-0.223022 -0.913663
-0.2229 -0.837806
-0.222778 0.0144995
-0.222656 0.859105
-0.222534 0.881089
-0.222412 0.0377261
-0.22229 -0.848316
-0.222168 -0.876516
-0.222046 0.000903935
-0.221924 0.881579
-0.221802 0.82812
-0.22168 -0.118512
-0.221558 -0.939351
-0.221436 -0.72567
-0.221313 0.298628
-0.221191 0.989305
-0.221069 0.556895
-0.220947 -0.514771
-0.220825 -0.994425
-0.220703 -0.319964
-0.220581 0.729092
-0.220459 0.924317
-0.220337 0.031767
-0.220215 -0.898899
-0.220093 -0.767112
-0.219971 0.27262
-0.219849 0.989596
-0.219727 0.53589
-0.219604 -0.550352
-0.219482 -0.987463
-0.21936 -0.264936
-0.219238 0.766305
-0.219116 0.904753
-0.218994 -0.00289441
-0.218872 -0.905271
-0.21875 -0.774266
-0.218628 0.23074
-0.218506 0.974636
-0.218384 0.637237
-0.218262 -0.396352
-0.21814 -0.997377
-0.218018 -0.531648
-0.217896 0.491293
-0.217773 0.999969
-0.217651 0.485824
-0.217529 -0.512784
-0.217407 -0.999995
-0.217285 -0.516713
-0.217163 0.453465
-0.217041 0.995209
-0.216919 0.627463
-0.216797 -0.295549
-0.216675 -0.953886
-0.216553 -0.797104
-0.216431 0.017706
-0.216309 0.810294
-0.216187 0.959006
-0.216064 0.374354
-0.215942 -0.481338
-0.21582 -0.980697
-0.215698 -0.789503
-0.215576 -0.0667062
-0.215454 0.690387
-0.215332 0.999985
-0.21521 0.693076
-0.215088 -0.019176
-0.214966 -0.709933
-0.214844 -0.999665
-0.214722 -0.755118
-0.2146 -0.129286
-0.214478 0.549652
-0.214355 0.957739
-0.214233 0.924557
-0.214111 0.489458
-0.213989 -0.142315
-0.213867 -0.705478
-0.213745 -0.987038
-0.213623 -0.899683
-0.213501 -0.496408
-0.213379 0.0669761
-0.213257 0.597733
-0.213135 0.932675
-0.213013 0.98388
-0.212891 0.753974
-0.212769 0.322886
-0.212646 -0.184241
-0.212524 -0.635388
-0.212402 -0.925079
-0.21228 -0.995669
-0.212158 -0.843994
-0.212036 -0.514914
-0.211914 -0.0858003
-0.211792 0.353001
-0.21167 0.717085
-0.211548 0.942849
-0.211426 0.9964
-0.211304 0.876089
-0.211182 0.609411
-0.21106 0.245737
-0.210938 -0.153346
-0.210815 -0.524321
-0.210693 -0.811173
-0.210571 -0.972844
-0.210449 -0.988034
-0.210327 -0.85708
-0.210205 -0.600973
-0.210083 -0.25786
-0.209961 0.122414
-0.209839 0.485058
-0.209717 0.777627
-0.209595 0.957047
-0.209473 0.995635
-0.209351 0.885363
-0.209229 0.639804
-0.209106 0.293307
-0.208984 -0.102768
-0.208862 -0.486602
-0.20874 -0.794745
-0.208618 -0.972246
-0.208496 -0.982734
-0.208374 -0.816754
-0.208252 -0.496564
-0.20813 -0.075761
-0.208008 0.367314
-0.207886 0.742427
-0.207764 0.965229
-0.207642 0.97705
-0.20752 0.762443
-0.207397 0.359458
-0.207275 -0.141953
-0.207153 -0.616004
-0.207031 -0.930711
-0.206909 -0.985574
-0.206787 -0.747369
-0.206665 -0.271549
-0.206543 0.302035
-0.206421 0.784362
-0.206299 0.998138
-0.206177 0.846949
-0.206055 0.366186
-0.205933 -0.270884
-0.205811 -0.806145
-0.205688 -0.999017
-0.205566 -0.741005
-0.205444 -0.127852
-0.205322 0.558621
-0.2052 0.970736
-0.205078 0.873859
-0.204956 0.293755
-0.204834 -0.463094
-0.204712 -0.956804
-0.20459 -0.870799
-0.204468 -0.231166
-0.204346 0.568575
-0.204224 0.993557
-0.204102 0.72955
-0.203979 -0.0631315
-0.203857 -0.818023
-0.203735 -0.95659
-0.203613 -0.345664
-0.203491 0.550118
-0.203369 0.99921
-0.203247 0.604549
-0.203125 -0.319009
-0.203003 -0.966389
-0.202881 -0.739808
-0.202759 0.175876
-0.202637 0.931161
-0.202515 0.790967
-0.202393 -0.129318
-0.202271 -0.925287
-0.202148 -0.782126
-0.202026 0.171991
-0.201904 0.949774
-0.201782 0.718147
-0.20166 -0.290374
-0.201538 -0.985056
-0.201416 -0.592358
-0.201294 0.463781
-0.201172 0.999438
-0.20105 0.398548
-0.200928 -0.661019
-0.200806 -0.958895
-0.200684 -0.142577
-0.200562 0.841518
-0.200439 0.83918
-0.200317 -0.151397
-0.200195 -0.963879
-0.200073 -0.636746
-0.199951 0.444117
-0.199829 0.999215
-0.199707 0.372523
-0.199585 -0.693522
-0.199463 -0.942169
-0.199341 -0.0852295
-0.199219 0.870075
-0.199097 0.812905
-0.198975 -0.182841
-0.198853 -0.966754
-0.19873 -0.648963
-0.198608 0.399732
-0.198486 0.998831
-0.198364 0.492241
-0.198242 -0.550193
-0.19812 -0.994869
-0.197998 -0.378429
-0.197876 0.632368
-0.197754 0.984303
-0.197632 0.33284
-0.19751 -0.647879
-0.197388 -0.985964
-0.197266 -0.370984
-0.197144 0.590584
-0.197021 0.998119
-0.196899 0.497694
-0.196777 -0.439836
-0.196655 -0.988546
-0.196533 -0.696978
-0.196411 0.166141
-0.196289 0.887421
-0.196167 0.908041
-0.196045 0.238695
-0.195923 -0.599295
-0.195801 -0.998282
-0.195679 -0.699082
-0.195557 0.0667738
-0.195435 0.779131
-0.195313 0.990986
-0.19519 0.596532
-0.195068 -0.14291
-0.194946 -0.790285
-0.194824 -0.995618
-0.194702 -0.673299
-0.19458 -0.0148145
-0.194458 0.639966
-0.194336 0.983562
-0.194214 0.878145
-0.194092 0.39479
-0.19397 -0.243702
-0.193848 -0.773447
-0.193726 -0.998066
-0.193604 -0.853267
-0.193481 -0.412089
-0.193359 0.158987
-0.193237 0.667823
-0.193115 0.960943
-0.192993 0.964699
-0.192871 0.695611
-0.192749 0.243312
-0.192627 -0.263389
-0.192505 -0.694728
-0.192383 -0.951826
-0.192261 -0.985682
-0.192139 -0.801544
-0.192017 -0.450682
-0.191895 -0.0138894
-0.191772 0.418238
-0.19165 0.763766
-0.191528 0.963415
-0.191406 0.988438
-0.191284 0.842189
-0.191162 0.556233
-0.19104 0.182583
-0.190918 -0.21618
-0.190796 -0.577148
-0.190674 -0.846259
-0.190552 -0.985369
-0.19043 -0.976591
-0.190308 -0.823703
-0.190186 -0.550733
-0.190063 -0.198111
-0.189941 0.18305
-0.189819 0.537844
-0.189697 0.814868
-0.189575 0.973145
-0.189453 0.987903
-0.189331 0.854508
-0.189209 0.589989
-0.189087 0.231744
-0.188965 -0.166684
-0.188843 -0.542575
-0.188721 -0.833141
-0.188599 -0.98575
-0.188477 -0.967849
-0.188354 -0.77485
-0.188232 -0.434205
-0.18811 -0.00408112
-0.187988 0.434262
-0.187866 0.790244
-0.187744 0.982293
-0.187622 0.957604
-0.1875 0.708861
-0.187378 0.282883
-0.187256 -0.223179
-0.187134 -0.680256
-0.187012 -0.958778
-0.18689 -0.966826
-0.186768 -0.684475
-0.186646 -0.181757
-0.186523 0.390449
-0.186401 0.840424
-0.186279 0.999296
-0.186157 0.789195
-0.186035 0.268631
-0.185913 -0.370446
-0.185791 -0.864951
-0.185669 -0.988154
-0.185547 -0.661279
-0.185425 -0.0138347
-0.185303 0.651399
-0.185181 0.992387
-0.185059 0.80855
-0.184937 0.173516
-0.184814 -0.570889
-0.184692 -0.986164
-0.18457 -0.799243
-0.184448 -0.099993
-0.184326 0.674435
-0.184204 0.999709
-0.184082 0.626983
-0.18396 -0.203966
-0.183838 -0.892301
-0.183716 -0.903742
-0.183594 -0.202748
-0.183472 0.669398
-0.18335 0.993599
-0.183228 0.474339
-0.183105 -0.46324
-0.182983 -0.994893
-0.182861 -0.622568
-0.182739 0.3329
-0.182617 0.978265
-0.182495 0.678962
-0.182373 -0.292992
-0.182251 -0.975949
-0.182129 -0.664877
-0.182007 0.338216
-0.181885 0.989541
-0.181763 0.586174
-0.181641 -0.453448
-0.181519 -0.999992
-0.181396 -0.440177
-0.181274 0.614229
-0.181152 0.977285
-0.18103 0.227103
-0.180908 -0.785634
-0.180786 -0.891621
-0.180664 0.0396334
-0.180542 0.925837
-0.18042 0.72584
-0.180298 -0.329499
-0.180176 -0.996337
-0.180054 -0.484862
-0.179932 0.600603
-0.17981 0.975105
-0.179688 0.196636
-0.179565 -0.813357
-0.179443 -0.865361
-0.179321 0.0972407
-0.179199 0.944985
-0.179077 0.694376
-0.178955 -0.356703
-0.178833 -0.99692
-0.178711 -0.50297
-0.178589 0.555905
-0.178467 0.991713
-0.178345 0.33217
-0.178223 -0.687073
-0.178101 -0.962446
-0.177979 -0.214199
-0.177856 0.754838
-0.177734 0.940493
-0.177612 0.170735
-0.17749 -0.76491
-0.177368 -0.945342
-0.177246 -0.215705
-0.177124 0.712195
-0.177002 0.97583
-0.17688 0.355917
-0.176758 -0.573263
-0.176636 -0.999999
-0.176514 -0.581196
-0.176392 0.31056
-0.17627 0.945276
-0.176147 0.838239
-0.176025 0.0985383
-0.175903 -0.705196
-0.175781 -0.996867
-0.175659 -0.596067
-0.175537 0.198701
-0.175415 0.854279
-0.175293 0.965636
-0.175171 0.49077
-0.175049 -0.264079
-0.174927 -0.858721
-0.174805 -0.977445
-0.174683 -0.582551
-0.174561 0.0994808
-0.174438 0.721932
-0.174316 0.997428
-0.174194 0.821727
-0.174072 0.296067
-0.17395 -0.342152
-0.173828 -0.833312
-0.173706 -0.999337
-0.173584 -0.799062
-0.173462 -0.324392
-0.17334 0.249318
-0.173218 0.732216
-0.173096 0.981607
-0.172974 0.938377
-0.172852 0.632476
-0.172729 0.162346
-0.172607 -0.34054
-0.172485 -0.7495
-0.172363 -0.972741
-0.172241 -0.970016
-0.172119 -0.754764
-0.171997 -0.38423
-0.171875 0.0578828
-0.171753 0.48121
-0.171631 0.806648
-0.171509 0.979441
-0.171387 0.976032
-0.171265 0.804669
-0.171143 0.500789
-0.171021 0.118787
-0.170898 -0.278028
-0.170776 -0.627589
-0.170654 -0.877974
-0.170532 -0.994063
-0.17041 -0.961417
-0.170288 -0.787217
-0.170166 -0.498433
-0.170044 -0.137624
-0.169922 0.243004
-0.1698 0.588617
-0.169678 0.849035
-0.169556 0.985526
-0.169434 0.976333
-0.169312 0.820254
-0.169189 0.53774
-0.169067 0.169133
-0.168945 -0.230023
-0.168823 -0.596342
-0.168701 -0.867963
-0.168579 -0.99483
-0.168457 -0.948413
-0.168335 -0.729101
-0.168213 -0.369506
-0.168091 0.0678299
-0.167969 0.499084
-0.167847 0.833803
-0.167725 0.993711
-0.167603 0.932307
-0.16748 0.650633
-0.167358 0.204188
-0.167236 -0.303154
-0.167114 -0.739857
-0.166992 -0.979767
-0.16687 -0.940448
-0.166748 -0.615762
-0.166626 -0.0900944
-0.166504 0.475689
-0.166382 0.888839
-0.16626 0.990711
-0.166138 0.723198
-0.166016 0.16788
-0.165894 -0.466232
-0.165771 -0.91393
-0.165649 -0.965308
-0.165527 -0.572957
-0.165405 0.100734
-0.165283 0.735569
-0.165161 0.999992
-0.165039 0.731082
-0.164917 0.0502474
-0.164795 -0.669896
-0.164673 -0.999289
-0.164551 -0.713774
-0.164429 0.03332
-0.164307 0.76818
-0.164185 0.986871
-0.164063 0.511839
-0.16394 -0.341016
-0.163818 -0.948103
-0.163696 -0.831306
-0.163574 -0.0550129
-0.163452 0.773678
-0.16333 0.9647
-0.163208 0.332456
-0.163086 -0.596332
-0.162964 -0.998314
-0.162842 -0.489015
-0.16272 0.481395
-0.162598 0.999021
-0.162476 0.54806
-0.162354 -0.448676
-0.162231 -0.998736
-0.162109 -0.528094
-0.161987 0.494633
-0.161865 0.99958
-0.161743 0.436156
-0.161621 -0.602659
-0.161499 -0.9836
-0.161377 -0.273904
-0.161255 0.745115
-0.161133 0.92349
-0.161011 0.048132
-0.160889 -0.884476
-0.160767 -0.794783
-0.160645 0.2206
-0.160522 0.979197
-0.1604 0.588082
-0.160278 -0.496532
-0.160156 -0.995165
-0.160034 -0.316591
-0.159912 0.736793
-0.15979 0.91809
-0.159668 0.014162
-0.159546 -0.905849
-0.159424 -0.759641
-0.159302 0.276396
-0.15918 0.988599
-0.159058 0.553107
-0.158936 -0.518826
-0.158813 -0.994861
-0.158691 -0.34101
-0.158569 0.69435
-0.158447 0.953595
-0.158325 0.162013
-0.158203 -0.80288
-0.158081 -0.90119
-0.157959 -0.0438554
-0.157837 0.855218
-0.157715 0.869911
-0.157593 0.00409488
-0.157471 -0.86075
-0.157349 -0.879356
-0.157227 -0.055019
-0.157104 0.815252
-0.156982 0.929046
-0.15686 0.205687
-0.156738 -0.692702
-0.156616 -0.988125
-0.156494 -0.45249
-0.156372 0.447805
-0.15625 0.982755
-0.156128 0.751188
-0.156006 -0.0432537
-0.155884 -0.797064
-0.155762 -0.976627
-0.15564 -0.482445
-0.155518 0.326756
-0.155396 0.914662
-0.155273 0.924496
-0.155151 0.377551
-0.155029 -0.380855
-0.154907 -0.914345
-0.154785 -0.945536
-0.154663 -0.484193
-0.154541 0.21211
-0.154419 0.794604
-0.154297 0.999289
-0.154175 0.756055
-0.154053 0.194419
-0.153931 -0.436653
-0.153809 -0.884552
-0.153687 -0.990941
-0.153564 -0.737655
-0.153442 -0.234131
-0.15332 0.337218
-0.153198 0.790449
-0.153076 0.994588
-0.152954 0.905184
-0.152832 0.565067
-0.15271 0.0805529
-0.152588 -0.41521
-0.152466 -0.799406
-0.152344 -0.987756
-0.152222 -0.948817
-0.1521 -0.703954
-0.151978 -0.315932
-0.151855 0.129149
-0.151733 0.541623
-0.151611 0.845555
-0.151489 0.99089
-0.151367 0.959269
-0.151245 0.763717
-0.151123 0.443326
-0.151001 0.0546138
-0.150879 -0.338644
-0.150757 -0.675456
-0.150635 -0.906207
-0.150513 -0.998903
-0.150391 -0.942577
-0.150269 -0.747765
-0.150146 -0.444268
-0.150024 -0.0766246
-0.149902 0.302052
-0.14978 0.637184
-0.149658 0.879994
-0.149536 0.994135
-0.149414 0.960956
-0.149292 0.782721
-0.14917 0.483255
-0.149048 0.105723
-0.148926 -0.292519
-0.148804 -0.64766
-0.148682 -0.899033
-0.14856 -0.999413
-0.148438 -0.924482
-0.148315 -0.679697
-0.148193 -0.30277
-0.148071 0.1396
-0.147949 0.56141
-0.147827 0.87282
-0.147705 0.999363
-0.147583 0.901254
-0.147461 0.588083
-0.147339 0.123872
-0.147217 -0.381311
-0.147095 -0.794328
-0.146973 -0.993443
-0.146851 -0.906568
-0.146729 -0.541736
-0.146606 0.0026683
-0.146484 0.556951
-0.146362 0.929068
-0.14624 0.972364
-0.146118 0.649551
-0.145996 0.0649827
-0.145874 -0.557131
-0.145752 -0.952407
-0.14563 -0.930637
-0.145508 -0.477075
-0.145386 0.214343
-0.145264 0.809887
-0.145142 0.993307
-0.14502 0.642497
-0.144897 -0.0741698
-0.144775 -0.758446
-0.144653 -0.995818
-0.144531 -0.615749
-0.144409 0.166406
-0.144287 0.847976
-0.144165 0.955138
-0.144043 0.386298
-0.143921 -0.471458
-0.143799 -0.984124
-0.143677 -0.74071
-0.143555 0.0942814
-0.143433 0.860467
-0.143311 0.913044
-0.143188 0.182257
-0.143066 -0.71492
-0.142944 -0.976423
-0.142822 -0.342529
-0.1427 0.617372
-0.142578 0.992732
-0.142456 0.401792
-0.142334 -0.591942
-0.142212 -0.992874
-0.14209 -0.375696
-0.141968 0.636557
-0.141846 0.979481
-0.141724 0.272625
-0.141602 -0.733333
-0.141479 -0.936306
-0.141357 -0.0987843
-0.141235 0.852187
-0.141113 0.839728
-0.140991 -0.132527
-0.140869 -0.954245
-0.140747 -0.67155
-0.140625 0.394286
-0.140503 0.999779
-0.140381 0.430521
-0.140259 -0.646859
-0.140137 -0.960394
-0.140015 -0.13762
-0.139893 0.848086
-0.139771 0.83011
-0.139648 -0.16875
-0.139526 -0.967918
-0.139404 -0.628576
-0.139282 0.446284
-0.13916 0.999524
-0.139038 0.393777
-0.138916 -0.663953
-0.138794 -0.960719
-0.138672 -0.168297
-0.13855 0.810742
-0.138428 0.885758
-0.138306 -0.0129529
-0.138184 -0.894168
-0.138062 -0.813039
-0.137939 0.127559
-0.137817 0.930692
-0.137695 0.774682
-0.137573 -0.162405
-0.137451 -0.932874
-0.137329 -0.789905
-0.137207 0.106828
-0.137085 0.897209
-0.136963 0.85908
-0.136841 0.0507287
-0.136719 -0.795392
-0.136597 -0.95335
-0.136475 -0.313854
-0.136353 0.57491
-0.13623 0.999202
-0.136108 0.648816
-0.135986 -0.183824
-0.135864 -0.873221
-0.135742 -0.938094
-0.13562 -0.360368
-0.135498 0.448722
-0.135376 0.959383
-0.135254 0.868374
-0.135132 0.258726
-0.13501 -0.491504
-0.134888 -0.956462
-0.134766 -0.900468
-0.134644 -0.379625
-0.134521 0.321628
-0.134399 0.85717
-0.134277 0.989243
-0.134155 0.681973
-0.134033 0.0909924
-0.133911 -0.526253
-0.133789 -0.926741
-0.133667 -0.97306
-0.133545 -0.669685
-0.133423 -0.142131
-0.133301 0.421972
-0.133179 0.842116
-0.133057 0.999866
-0.132935 0.865438
-0.132813 0.493906
-0.13269 -0.00150348
-0.132568 -0.486939
-0.132446 -0.844184
-0.132324 -0.99684
-0.132202 -0.922258
-0.13208 -0.649429
-0.131958 -0.246167
-0.131836 0.199551
-0.131714 0.599202
-0.131592 0.880335
-0.13147 0.997742
-0.131348 0.938254
-0.131226 0.719533
-0.131104 0.384099
-0.130981 -0.0096692
-0.130859 -0.397791
-0.130737 -0.72057
-0.130615 -0.930862
-0.130493 -0.999883
-0.130371 -0.92015
-0.130249 -0.7055
-0.130127 -0.388442
-0.130005 -0.0153392
-0.129883 0.359973
-0.129761 0.683362
-0.129639 0.907621
-0.129517 0.998927
-0.129395 0.941821
-0.129272 0.742043
-0.12915 0.426741
-0.129028 0.0417694
-0.128906 -0.353905
-0.128784 -0.696294
-0.128662 -0.92619
-0.12854 -0.999444
-0.128418 -0.896135
-0.128296 -0.626847
-0.128174 -0.234318
-0.128052 0.210853
-0.12793 0.620877
-0.127808 0.907031
-0.127686 0.999158
-0.127563 0.864579
-0.127441 0.521565
-0.127319 0.0424569
-0.127197 -0.457086
-0.127075 -0.843217
-0.126953 -0.999626
-0.126831 -0.865377
-0.126709 -0.462956
-0.126587 0.095736
-0.126465 0.633454
-0.126343 0.960644
-0.126221 0.944335
-0.126099 0.568936
-0.125977 -0.0389698
-0.125854 -0.642066
-0.125732 -0.979824
-0.12561 -0.884447
-0.125488 -0.374787
-0.125366 0.325469
-0.125244 0.873229
-0.125122 0.972296
-0.125 0.544021
-0.124878 -0.197808
-0.124756 -0.835014
-0.124634 -0.975665
-0.124512 -0.506766
-0.12439 0.296867
-0.124268 0.912226
-0.124146 0.904973
-0.124023 0.252772
